t [s]               T [K]               Xfront [mm]         sdot [mm/s]         dodt [kg/m^2s]      dcodt [kg/m^2s]     dco2dt [kg/m^2s]    dcdt [kg/m^2s]      dc2dt [kg/m^2s]     dc3dt [kg/m^2s]     
0                   800                 0                   0                   0                   0                   0                   0                   0                   0                   
0.005               814.871             1.53983e-07         3.07967e-05         0.000182786         0.000110024         2.75399e-05         1.48477e-37         2.08804e-42         1.37292e-39         
0.01                826.849             3.08838e-07         3.09709e-05         0.000183431         0.000112595         2.46336e-05         6.7831e-37          1.19601e-41         7.15049e-39         
0.015               836.964             4.65841e-07         3.14007e-05         0.000183201         0.000115754         2.24677e-05         2.36534e-36         5.02307e-41         2.77712e-38         
0.02                845.809             6.25683e-07         3.19684e-05         0.000182477         0.000119189         2.07636e-05         6.87954e-36         1.71268e-40         8.85635e-38         
0.025               853.74              7.88772e-07         3.26178e-05         0.000181447         0.000122766         1.937e-05           1.7585e-35          5.03444e-40         2.45469e-37         
0.03                860.984             9.5537e-07          3.33196e-05         0.000180213         0.000126419         1.81974e-05         4.08181e-35         1.32471e-39         6.12703e-37         
0.035               867.693             1.12566e-06         3.4057e-05          0.000178834         0.000130114         1.71896e-05         8.79109e-35         3.19837e-39         1.40987e-36         
0.04                873.97              1.29975e-06         3.48196e-05         0.000177349         0.000133832         1.63093e-05         1.78305e-34         7.20755e-39         3.03942e-36         
0.045               879.89              1.47776e-06         3.56007e-05         0.000175784         0.000137563         1.55301e-05         3.44224e-34         1.53466e-38         6.21024e-36         
0.05                885.511             1.65973e-06         3.63957e-05         0.000174156         0.0001413           1.48334e-05         6.37541e-34         3.11561e-38         1.213e-35           
0.055               890.876             1.84574e-06         3.72015e-05         0.000172477         0.000145037         1.42049e-05         1.13969e-33         6.07289e-38         2.27981e-35         
0.06                896.016             2.03582e-06         3.80158e-05         0.000170758         0.000148773         1.36338e-05         1.97573e-33         1.14268e-37         4.14429e-35         
0.065               900.961             2.23e-06            3.88367e-05         0.000169005         0.000152505         1.31117e-05         3.33405e-33         2.08458e-37         7.31635e-35         
0.07                905.732             2.42832e-06         3.9663e-05          0.000167224         0.000156232         1.26319e-05         5.49357e-33         3.70003e-37         1.25858e-34         
0.075               910.346             2.63079e-06         4.04936e-05         0.000165419         0.000159955         1.21888e-05         8.86085e-33         6.40845e-37         2.11548e-34         
0.08                914.82              2.83743e-06         4.13279e-05         0.000163594         0.000163671         1.1778e-05          1.40203e-32         1.08572e-36         3.4824e-34          
0.085               919.166             3.04825e-06         4.21651e-05         0.000161752         0.000167382         1.13957e-05         2.18012e-32         1.80303e-36         5.62519e-34         
0.09                923.395             3.26328e-06         4.30048e-05         0.000159894         0.000171087         1.10388e-05         3.33667e-32         2.94015e-36         8.93123e-34         
0.095               927.517             3.48251e-06         4.38466e-05         0.000158023         0.000174786         1.07046e-05         5.03305e-32         4.71501e-36         1.39581e-33         
0.1                 931.54              3.70596e-06         4.46901e-05         0.000156141         0.000178479         1.03909e-05         7.49096e-32         7.4459e-36          2.14994e-33         
0.105               935.471             3.93364e-06         4.55352e-05         0.000154248         0.000182167         1.00956e-05         1.10121e-31         1.15925e-35         3.26731e-33         
0.11                939.317             4.16554e-06         4.63815e-05         0.000152347         0.00018585          9.81713e-06         1.60036e-31         1.7812e-35          4.90387e-33         
0.115               943.083             4.40169e-06         4.7229e-05          0.000150437         0.000189527         9.5539e-06          2.30103e-31         2.70342e-35         7.27521e-33         
0.12                946.775             4.64208e-06         4.80775e-05         0.000148519         0.0001932           9.30464e-06         3.27561e-31         4.05634e-35         1.06768e-32         
0.125               950.398             4.88671e-06         4.89268e-05         0.000146595         0.000196868         9.0682e-06          4.61959e-31         6.02131e-35         1.55107e-32         
0.13                953.954             5.13559e-06         4.97769e-05         0.000144665         0.000200531         8.84355e-06         6.45807e-31         8.84847e-35         2.23191e-32         
0.135               957.449             5.38873e-06         5.06276e-05         0.000142729         0.000204191         8.62979e-06         8.95392e-31         1.28802e-34         3.18293e-32         
0.14                960.885             5.64613e-06         5.1479e-05          0.000140789         0.000207847         8.42608e-06         1.2318e-30          1.85819e-34         4.5009e-32          
0.145               964.266             5.90778e-06         5.2331e-05          0.000138843         0.000211499         8.23172e-06         1.68215e-30         2.65815e-34         6.31387e-32         
0.15                967.594             6.1737e-06          5.31834e-05         0.000136893         0.000215148         8.04602e-06         2.28119e-30         3.77214e-34         8.79023e-32         
0.155               970.873             6.44388e-06         5.40364e-05         0.000134939         0.000218794         7.86841e-06         3.07313e-30         5.31243e-34         1.21502e-31         
0.16                974.103             6.71833e-06         5.48898e-05         0.000132981         0.000222436         7.69834e-06         4.11404e-30         7.42777e-34         1.66799e-31         
0.165               977.289             6.99705e-06         5.57437e-05         0.000131019         0.000226077         7.53532e-06         5.47463e-30         1.03142e-33         2.275e-31           
0.17                980.431             7.28004e-06         5.6598e-05          0.000129054         0.000229714         7.3789e-06          7.24372e-30         1.42286e-33         3.08372e-31         
0.175               983.531             7.5673e-06          5.74526e-05         0.000127086         0.00023335          7.22868e-06         9.53237e-30         1.95062e-33         4.15525e-31         
0.18                986.592             7.85884e-06         5.83077e-05         0.000125115         0.000236983         7.08428e-06         1.24789e-29         2.65815e-33         5.56752e-31         
0.185               989.615             8.15466e-06         5.91631e-05         0.000123141         0.000240614         6.94535e-06         1.6255e-29          3.60164e-33         7.41947e-31         
0.19                992.602             8.45475e-06         6.00189e-05         0.000121165         0.000244244         6.81159e-06         2.10728e-29         4.85329e-33         9.83627e-31         
0.195               995.553             8.75913e-06         6.08751e-05         0.000119185         0.000247872         6.6827e-06          2.71937e-29         6.50558e-33         1.29755e-30         
0.2                 998.47              9.06778e-06         6.17316e-05         0.000117203         0.000251498         6.55841e-06         3.49383e-29         8.6764e-33          1.70351e-30         
0.205               1001.36             9.38073e-06         6.25885e-05         0.000115219         0.000255123         6.43848e-06         4.46991e-29         1.15155e-32         2.22622e-30         
0.21                1004.21             9.69796e-06         6.34457e-05         0.000113232         0.000258748         6.32267e-06         5.69544e-29         1.52123e-32         2.89648e-30         
0.215               1007.03             1.00195e-05         6.43033e-05         0.000111243         0.000262371         6.21076e-06         7.2286e-29          2.00056e-32         3.75254e-30         
0.22                1009.83             1.03453e-05         6.51613e-05         0.000109252         0.000265993         6.10257e-06         9.13988e-29         2.61952e-32         4.8417e-30          
0.225               1012.59             1.06754e-05         6.60196e-05         0.000107259         0.000269614         5.9979e-06          1.15145e-28         3.41567e-32         6.2223e-30          
0.23                1015.33             1.10098e-05         6.68783e-05         0.000105263         0.000273235         5.89659e-06         1.44551e-28         4.43583e-32         7.96609e-30         
0.235               1018.04             1.13485e-05         6.77374e-05         0.000103266         0.000276856         5.79846e-06         1.80851e-28         5.73822e-32         1.0161e-29          
0.24                1020.73             1.16914e-05         6.85968e-05         0.000101266         0.000280476         5.70338e-06         2.25525e-28         7.39506e-32         1.29145e-29         
0.245               1023.39             1.20387e-05         6.94567e-05         9.92651e-05         0.000284096         5.61119e-06         2.80342e-28         9.49554e-32         1.63576e-29         
0.25                1026.03             1.23903e-05         7.03169e-05         9.72618e-05         0.000287715         5.52177e-06         3.47412e-28         1.21496e-31         2.06495e-29         
0.255               1028.65             1.27462e-05         7.11774e-05         9.52566e-05         0.000291335         5.43499e-06         4.29248e-28         1.54924e-31         2.59833e-29         
0.26                1031.24             1.31064e-05         7.20384e-05         9.32496e-05         0.000294954         5.35074e-06         5.28831e-28         1.96894e-31         3.25923e-29         
0.265               1033.81             1.34709e-05         7.28998e-05         9.12408e-05         0.000298574         5.26891e-06         6.49693e-28         2.49431e-31         4.07582e-29         
0.27                1036.36             1.38397e-05         7.37615e-05         8.92302e-05         0.000302193         5.18938e-06         7.96011e-28         3.14999e-31         5.08197e-29         
0.275               1038.89             1.42128e-05         7.46237e-05         8.72179e-05         0.000305813         5.11207e-06         9.7271e-28          3.966e-31           6.31836e-29         
0.28                1041.4              1.45902e-05         7.54863e-05         8.52038e-05         0.000309434         5.03689e-06         1.18559e-27         4.9787e-31          7.83369e-29         
0.285               1043.89             1.4972e-05          7.63493e-05         8.3188e-05          0.000313054         4.96374e-06         1.44146e-27         6.23212e-31         9.68619e-29         
0.29                1046.36             1.53581e-05         7.72127e-05         8.11705e-05         0.000316676         4.89255e-06         1.74831e-27         7.77941e-31         1.19453e-28         
0.295               1048.81             1.57484e-05         7.80765e-05         7.91513e-05         0.000320297         4.82323e-06         2.11549e-27         9.68459e-31         1.46936e-28         
0.3                 1051.24             1.61431e-05         7.89407e-05         7.71305e-05         0.00032392          4.75571e-06         2.55391e-27         1.20246e-30         1.80292e-28         
0.305               1053.65             1.65422e-05         7.98054e-05         7.5108e-05          0.000327543         4.68993e-06         3.07632e-27         1.48917e-30         2.20684e-28         
0.31                1056.05             1.69455e-05         8.06705e-05         7.30839e-05         0.000331167         4.62582e-06         3.69752e-27         1.83964e-30         2.69487e-28         
0.315               1058.43             1.73532e-05         8.15361e-05         7.10581e-05         0.000334791         4.56331e-06         4.43476e-27         2.26707e-30         3.28326e-28         
0.32                1060.8              1.77652e-05         8.24021e-05         6.90308e-05         0.000338417         4.50235e-06         5.308e-27           2.78717e-30         3.99114e-28         
0.325               1063.15             1.81816e-05         8.32685e-05         6.70019e-05         0.000342043         4.44288e-06         6.34038e-27         3.41865e-30         4.84102e-28         
0.33                1065.48             1.86022e-05         8.41354e-05         6.49714e-05         0.00034567          4.38484e-06         7.55868e-27         4.18375e-30         5.85935e-28         
0.335               1067.79             1.90272e-05         8.50027e-05         6.29393e-05         0.000349299         4.32818e-06         8.99378e-27         5.10879e-30         7.0771e-28          
0.34                1070.1              1.94566e-05         8.58705e-05         6.09056e-05         0.000352928         4.27287e-06         1.06813e-26         6.22494e-30         8.53054e-28         
0.345               1072.38             1.98903e-05         8.67387e-05         5.88704e-05         0.000356558         4.21884e-06         1.26622e-26         7.56899e-30         1.02621e-27         
0.35                1074.66             2.03283e-05         8.76075e-05         5.68337e-05         0.00036019          4.16605e-06         1.49837e-26         9.18434e-30         1.23211e-27         
0.355               1076.92             2.07707e-05         8.84766e-05         5.47954e-05         0.000363822         4.11447e-06         1.76999e-26         1.11221e-29         1.47651e-27         
0.36                1079.16             2.12174e-05         8.93463e-05         5.27556e-05         0.000367456         4.06405e-06         2.08727e-26         1.34422e-29         1.76611e-27         
0.365               1081.39             2.16685e-05         9.02164e-05         5.07142e-05         0.000371091         4.01475e-06         2.45731e-26         1.62152e-29         2.10869e-27         
0.37                1083.61             2.2124e-05          9.1087e-05          4.86714e-05         0.000374728         3.96654e-06         2.88823e-26         1.95234e-29         2.51324e-27         
0.375               1085.82             2.25837e-05         9.1958e-05          4.6627e-05          0.000378365         3.91938e-06         3.38929e-26         2.34635e-29         2.99021e-27         
0.38                1088.01             2.30479e-05         9.28296e-05         4.45812e-05         0.000382004         3.87324e-06         3.97105e-26         2.8148e-29          3.55165e-27         
0.385               1090.19             2.35164e-05         9.37016e-05         4.25338e-05         0.000385645         3.82808e-06         4.64553e-26         3.37083e-29         4.21148e-27         
0.39                1092.36             2.39893e-05         9.45741e-05         4.0485e-05          0.000389286         3.78388e-06         5.42643e-26         4.02974e-29         4.98576e-27         
0.395               1094.52             2.44665e-05         9.5447e-05          3.84347e-05         0.000392929         3.7406e-06          6.32927e-26         4.80932e-29         5.89297e-27         
0.4                 1096.66             2.49481e-05         9.63205e-05         3.63829e-05         0.000396574         3.69822e-06         7.37169e-26         5.73022e-29         6.95436e-27         
0.405               1098.79             2.54341e-05         9.71944e-05         3.43297e-05         0.00040022          3.65671e-06         8.57368e-26         6.81638e-29         8.19433e-27         
0.41                1100.91             2.59244e-05         9.80689e-05         3.2275e-05          0.000403867         3.61604e-06         9.95787e-26         8.09554e-29         9.64089e-27         
0.415               1103.02             2.64191e-05         9.89438e-05         3.02189e-05         0.000407516         3.57619e-06         1.15498e-25         9.59976e-29         1.13261e-26         
0.42                1105.12             2.69182e-05         9.98192e-05         2.81613e-05         0.000411167         3.53713e-06         1.33785e-25         1.13661e-28         1.32866e-26         
0.425               1107.21             2.74217e-05         0.000100695         2.61022e-05         0.000414819         3.49884e-06         1.54764e-25         1.34372e-28         1.55644e-26         
0.43                1109.29             2.79296e-05         0.000101571         2.40418e-05         0.000418473         3.4613e-06          1.78805e-25         1.58624e-28         1.82074e-26         
0.435               1111.36             2.84418e-05         0.000102448         2.19799e-05         0.000422128         3.42449e-06         2.06319e-25         1.86982e-28         2.12701e-26         
0.44                1113.42             2.89584e-05         0.000103326         1.99166e-05         0.000425784         3.38838e-06         2.37774e-25         2.20098e-28         2.48146e-26         
0.445               1115.46             2.94795e-05         0.000104204         1.78519e-05         0.000429443         3.35296e-06         2.73693e-25         2.58718e-28         2.89117e-26         
0.45                1117.5              3.00049e-05         0.000105082         1.57858e-05         0.000433103         3.31821e-06         3.14663e-25         3.03699e-28         3.36418e-26         
0.455               1119.53             3.05347e-05         0.000105961         1.37183e-05         0.000436764         3.2841e-06          3.61344e-25         3.56022e-28         3.90961e-26         
0.46                1121.55             3.10689e-05         0.00010684          1.16494e-05         0.000440427         3.25063e-06         4.14473e-25         4.1681e-28          4.53781e-26         
0.465               1123.56             3.16075e-05         0.00010772          9.57911e-06         0.000444092         3.21777e-06         4.74878e-25         4.87345e-28         5.26049e-26         
0.47                1125.56             3.21505e-05         0.0001086           7.50746e-06         0.000447759         3.18551e-06         5.43484e-25         5.69091e-28         6.09093e-26         
0.475               1127.55             3.26979e-05         0.000109481         5.43446e-06         0.000451427         3.15383e-06         6.21324e-25         6.63717e-28         7.04412e-26         
0.48                1129.53             3.32497e-05         0.000110362         3.36009e-06         0.000455096         3.12271e-06         7.09551e-25         7.73125e-28         8.137e-26           
0.485               1131.5              3.38059e-05         0.000111244         1.28438e-06         0.000458768         3.09215e-06         8.09455e-25         8.99478e-28         9.3887e-26          
