t [s]               T [K]               Xfront [mm]         sdot [mm/s]         dodt [kg/m^2s]      dcodt [kg/m^2s]     dco2dt [kg/m^2s]    dcdt [kg/m^2s]      dc2dt [kg/m^2s]     dc3dt [kg/m^2s]     
0                   800                 0                   0                   0                   0                   0                   0                   0                   0                   
0.005               814.869             1.53926e-06         0.000307852         4.66866e-15         0.00109983          0.000275303         1.48591e-37         2.09066e-42         1.37258e-39         
0.01                826.844             3.08722e-06         0.000309592         1.06111e-14         0.00112552          0.000246254         6.78653e-37         1.19714e-41         7.14681e-39         
0.015               836.958             4.65665e-06         0.000313887         2.08403e-14         0.00115708          0.000224606         2.36606e-36         5.02663e-41         2.77508e-38         
0.02                845.801             6.25444e-06         0.000319558         3.71078e-14         0.00119141          0.000207573         6.88047e-36         1.71356e-40         8.84815e-38         
0.025               853.731             7.88468e-06         0.000326048         6.16207e-14         0.00122715          0.000193643         1.75849e-35         5.03622e-40         2.45199e-37         
0.03                860.974             9.54998e-06         0.00033306          9.71339e-14         0.00126366          0.000181923         4.08124e-35         1.32499e-39         6.11935e-37         
0.035               867.68              1.12521e-05         0.000340428         1.47046e-13         0.00130058          0.00017185          8.78883e-35         3.19862e-39         1.4079e-36          
0.04                873.956             1.29924e-05         0.000348048         2.15506e-13         0.00133774          0.00016305          1.78239e-34         7.20725e-39         3.03473e-36         
0.045               879.875             1.47716e-05         0.000355853         3.07532e-13         0.00137502          0.000155262         3.44061e-34         1.53442e-38         6.19982e-36         
0.05                885.495             1.65906e-05         0.000363798         4.2914e-13          0.00141236          0.000148298         6.37176e-34         3.11479e-38         1.21081e-35         
0.055               890.858             1.84499e-05         0.000371849         5.87492e-13         0.0014497           0.000142016         1.13893e-33         6.07067e-38         2.2754e-35          
0.06                895.998             2.03498e-05         0.000379985         7.91059e-13         0.00148703          0.000136308         1.97423e-33         1.14215e-37         4.13575e-35         
0.065               900.941             2.22907e-05         0.000388188         1.04979e-12         0.00152432          0.000131089         3.33122e-33         2.08341e-37         7.30039e-35         
0.07                905.71              2.4273e-05          0.000396444         1.37533e-12         0.00156157          0.000126293         5.48842e-33         3.69761e-37         1.25569e-34         
0.075               910.324             2.62967e-05         0.000404744         1.78121e-12         0.00159876          0.000121864         8.85178e-33         6.40367e-37         2.11037e-34         
0.08                914.796             2.83621e-05         0.000413079         2.28309e-12         0.0016359           0.000117758         1.40047e-32         1.08482e-36         3.47357e-34         
0.085               919.141             3.04693e-05         0.000421444         2.89905e-12         0.00167298          0.000113936         2.17752e-32         1.80136e-36         5.61027e-34         
0.09                923.368             3.26185e-05         0.000429834         3.64981e-12         0.00170999          0.000110369         3.33241e-32         2.93717e-36         8.90651e-34         
0.095               927.489             3.48097e-05         0.000438244         4.55911e-12         0.00174695          0.000107029         5.02622e-32         4.70982e-36         1.39179e-33         
0.1                 931.51              3.7043e-05          0.000446672         5.65398e-12         0.00178385          0.000103893         7.48018e-32         7.43707e-36         2.1435e-33          
0.105               935.44              3.93186e-05         0.000455115         6.96517e-12         0.0018207           0.000100941         1.09954e-31         1.15778e-35         3.25715e-33         
0.11                939.285             4.16365e-05         0.000463571         8.52746e-12         0.00185749          9.81574e-05         1.5978e-31          1.77878e-35         4.88807e-33         
0.115               943.05              4.39967e-05         0.000472038         1.03802e-11         0.00189423          9.55263e-05         2.29716e-31         2.69953e-35         7.25094e-33         
0.12                946.741             4.63992e-05         0.000480514         1.25676e-11         0.00193093          9.30348e-05         3.26985e-31         4.05016e-35         1.064e-32           
0.125               950.361             4.88442e-05         0.000488999         1.51395e-11         0.00196757          9.06714e-05         4.6111e-31          6.01163e-35         1.54555e-32         
0.13                953.917             5.13317e-05         0.000497492         1.81516e-11         0.00200417          8.84259e-05         6.44568e-31         8.83351e-35         2.22372e-32         
0.135               957.41              5.38616e-05         0.000505991         2.16663e-11         0.00204074          8.62891e-05         8.93603e-31         1.28574e-34         3.17089e-32         
0.14                960.845             5.64341e-05         0.000514497         2.5753e-11          0.00207726          8.4253e-05          1.22924e-30         1.85474e-34         4.48337e-32         
0.145               964.224             5.90492e-05         0.000523008         3.04893e-11         0.00211375          8.23101e-05         1.67853e-30         2.65299e-34         6.28858e-32         
0.15                967.551             6.17068e-05         0.000531524         3.5961e-11          0.0021502           8.0454e-05          2.27609e-30         3.76451e-34         8.75404e-32         
0.155               970.828             6.4407e-05          0.000540045         4.22636e-11         0.00218662          7.86786e-05         3.06602e-30         5.30124e-34         1.20988e-31         
0.16                974.057             6.71499e-05         0.00054857          4.95025e-11         0.00222301          7.69787e-05         4.1042e-30          7.41151e-34         1.66076e-31         
0.165               977.241             6.99354e-05         0.0005571           5.77945e-11         0.00225937          7.53491e-05         5.4611e-30          1.02908e-33         2.26488e-31         
0.17                980.382             7.27635e-05         0.000565634         6.7268e-11          0.00229571          7.37856e-05         7.22524e-30         1.41951e-33         3.06965e-31         
0.175               983.481             7.56344e-05         0.000574171         7.80646e-11         0.00233203          7.22841e-05         9.5073e-30          1.94586e-33         4.13583e-31         
0.18                986.54              7.85479e-05         0.000582712         9.03399e-11         0.00236832          7.08407e-05         1.24451e-29         2.65145e-33         5.54087e-31         
0.185               989.561             8.15042e-05         0.000591257         1.04265e-10         0.00240459          6.9452e-05          1.62097e-29         3.59225e-33         7.38313e-31         
0.19                992.546             8.45033e-05         0.000599805         1.20027e-10         0.00244085          6.8115e-05          2.10124e-29         4.84024e-33         9.78699e-31         
0.195               995.496             8.7545e-05          0.000608357         1.3783e-10          0.00247709          6.68266e-05         2.71135e-29         6.48753e-33         1.29091e-30         
0.2                 998.412             9.06296e-05         0.000616913         1.57899e-10         0.00251331          6.55843e-05         3.48325e-29         8.65159e-33         1.69459e-30         
0.205               1001.3              9.3757e-05          0.000625472         1.80478e-10         0.00254952          6.43854e-05         4.45602e-29         1.14816e-32         2.21432e-30         
0.21                1004.15             9.69271e-05         0.000634034         2.05834e-10         0.00258572          6.32278e-05         5.67729e-29         1.51662e-32         2.88068e-30         
0.215               1006.97             0.00010014          0.0006426           2.34257e-10         0.00262191          6.21092e-05         7.20498e-29         1.99433e-32         3.73164e-30         
0.22                1009.76             0.000103396         0.000651169         2.66062e-10         0.00265809          6.10278e-05         9.10928e-29         2.61115e-32         4.81419e-30         
0.225               1012.53             0.000106695         0.000659742         3.01592e-10         0.00269426          5.99816e-05         1.1475e-28          3.40446e-32         6.18624e-30         
0.23                1015.26             0.000110036         0.000668318         3.4122e-10          0.00273043          5.89688e-05         1.44044e-28         4.42089e-32         7.91903e-30         
0.235               1017.97             0.000113421         0.000676898         3.85347e-10         0.00276659          5.7988e-05          1.80202e-28         5.71841e-32         1.00998e-29         
0.24                1020.66             0.000116848         0.000685482         4.34411e-10         0.00280274          5.70376e-05         2.24697e-28         7.36888e-32         1.28353e-29         
0.245               1023.32             0.000120319         0.000694069         4.88884e-10         0.00283889          5.61161e-05         2.7929e-28          9.46111e-32         1.62554e-29         
0.25                1025.96             0.000123832         0.00070266          5.49275e-10         0.00287504          5.52223e-05         3.4608e-28          1.21045e-31         2.05181e-29         
0.255               1028.57             0.000127388         0.000711254         6.16136e-10         0.00291119          5.43549e-05         4.27567e-28         1.54335e-31         2.5815e-29          
0.26                1031.16             0.000130987         0.000719853         6.9006e-10          0.00294734          5.35127e-05         5.26717e-28         1.96129e-31         3.23776e-29         
0.265               1033.73             0.00013463          0.000728455         7.71686e-10         0.00298348          5.26947e-05         6.47042e-28         2.4844e-31          4.0485e-29          
0.27                1036.28             0.000138315         0.000737061         8.61704e-10         0.00301963          5.18999e-05         7.92698e-28         3.1372e-31          5.04733e-29         
0.275               1038.8              0.000142043         0.000745671         9.60853e-10         0.00305578          5.11271e-05         9.68581e-28         3.94955e-31         6.27457e-29         
0.28                1041.31             0.000145815         0.000754285         1.06993e-09         0.00309194          5.03756e-05         1.18046e-27         4.95761e-31         7.7785e-29          
0.285               1043.8              0.000149629         0.000762902         1.18979e-09         0.0031281           4.96444e-05         1.4351e-27          6.20518e-31         9.61684e-29         
0.29                1046.27             0.000153487         0.000771524         1.32135e-09         0.00316426          4.89328e-05         1.74045e-27         7.74509e-31         1.18584e-28         
0.295               1048.72             0.000157388         0.00078015          1.4656e-09          0.00320042          4.82399e-05         2.10581e-27         9.641e-31           1.4585e-28          
0.3                 1051.15             0.000161331         0.00078878          1.62357e-09         0.0032366           4.75651e-05         2.54201e-27         1.19694e-30         1.78939e-28         
0.305               1053.56             0.000165319         0.000797414         1.79642e-09         0.00327277          4.69076e-05         3.06172e-27         1.48221e-30         2.19002e-28         
0.31                1055.96             0.000169349         0.000806053         1.98533e-09         0.00330896          4.62668e-05         3.67967e-27         1.83087e-30         2.67402e-28         
0.315               1058.33             0.000173422         0.000814695         2.1916e-09          0.00334515          4.5642e-05          4.41297e-27         2.25605e-30         3.25748e-28         
0.32                1060.7              0.000177539         0.000823342         2.4166e-09          0.00338135          4.50326e-05         5.28147e-27         2.77338e-30         3.95934e-28         
0.325               1063.04             0.000181699         0.000831993         2.66181e-09         0.00341756          4.44382e-05         6.30816e-27         3.40143e-30         4.80189e-28         
0.33                1065.37             0.000185902         0.000840649         2.92878e-09         0.00345378          4.38581e-05         7.51963e-27         4.1623e-30          5.81129e-28         
0.335               1067.69             0.000190149         0.000849309         3.2192e-09          0.00349             4.32918e-05         8.94655e-27         5.08213e-30         7.01823e-28         
0.34                1069.99             0.000194439         0.000857973         3.53484e-09         0.00352624          4.27389e-05         1.06243e-26         6.19188e-30         8.45859e-28         
0.345               1072.27             0.000198772         0.000866642         3.8776e-09          0.00356249          4.21989e-05         1.25936e-26         7.52811e-30         1.01743e-27         
0.35                1074.55             0.000203148         0.000875315         4.24949e-09         0.00359874          4.16713e-05         1.49012e-26         9.1339e-30          1.22142e-27         
0.355               1076.8              0.000207568         0.000883993         4.65266e-09         0.00363501          4.11557e-05         1.76009e-26         1.106e-29           1.46354e-27         
0.36                1079.05             0.000212032         0.000892675         5.08938e-09         0.00367129          4.06517e-05         2.07541e-26         1.33659e-29         1.75039e-27         
0.365               1081.28             0.000216539         0.000901362         5.56208e-09         0.00370758          4.0159e-05          2.44314e-26         1.61216e-29         2.08966e-27         
0.37                1083.49             0.000221089         0.000910053         6.07332e-09         0.00374389          3.96772e-05         2.87133e-26         1.9409e-29          2.49027e-27         
0.375               1085.7              0.000225683         0.000918749         6.62583e-09         0.0037802           3.92058e-05         3.36916e-26         2.33238e-29         2.96253e-27         
0.38                1087.89             0.00023032          0.00092745          7.2225e-09          0.00381653          3.87447e-05         3.94712e-26         2.79778e-29         3.51835e-27         
0.385               1090.07             0.000235001         0.000936155         7.86639e-09         0.00385288          3.82934e-05         4.61713e-26         3.35014e-29         4.1715e-27          
0.39                1092.23             0.000239725         0.000944865         8.56075e-09         0.00388923          3.78516e-05         5.39278e-26         4.00463e-29         4.93783e-27         
0.395               1094.39             0.000244493         0.00095358          9.309e-09           0.0039256           3.74191e-05         6.28947e-26         4.7789e-29          5.83562e-27         
0.4                 1096.53             0.000249304         0.0009623           1.01148e-08         0.00396198          3.69955e-05         7.3247e-26          5.69343e-29         6.88585e-27         
0.405               1098.66             0.000254159         0.000971024         1.0982e-08          0.00399838          3.65807e-05         8.51827e-26         6.77198e-29         8.11263e-27         
0.41                1100.78             0.000259058         0.000979753         1.19146e-08         0.00403479          3.61742e-05         9.89263e-26         8.04204e-29         9.54361e-27         
0.415               1102.89             0.000264001         0.000988487         1.29169e-08         0.00407122          3.5776e-05          1.14732e-25         9.53541e-29         1.12105e-26         
0.42                1104.98             0.000268987         0.000997225         1.39935e-08         0.00410766          3.53857e-05         1.32885e-25         1.12888e-28         1.31494e-26         
0.425               1107.07             0.000274017         0.00100597          1.51492e-08         0.00414411          3.5003e-05          1.53709e-25         1.33446e-28         1.54018e-26         
0.43                1109.15             0.00027909          0.00101472          1.6389e-08          0.00418058          3.46279e-05         1.7757e-25          1.57515e-28         1.80149e-26         
0.435               1111.21             0.000284208         0.00102347          1.77182e-08         0.00421707          3.42601e-05         2.04876e-25         1.85657e-28         2.10427e-26         
0.44                1113.27             0.000289369         0.00103223          1.91424e-08         0.00425357          3.38993e-05         2.3609e-25          2.18517e-28         2.45463e-26         
0.445               1115.31             0.000294574         0.00104099          2.06677e-08         0.00429009          3.35454e-05         2.7173e-25          2.56835e-28         2.85957e-26         
0.45                1117.35             0.000299822         0.00104976          2.23001e-08         0.00432662          3.31981e-05         3.12378e-25         3.0146e-28          3.327e-26           
0.455               1119.37             0.000305115         0.00105853          2.40463e-08         0.00436317          3.28574e-05         3.58687e-25         3.53363e-28         3.86593e-26         
0.46                1121.39             0.000310452         0.00106731          2.59131e-08         0.00439973          3.2523e-05          4.11388e-25         4.13657e-28         4.48655e-26         
0.465               1123.4              0.000315832         0.00107609          2.79079e-08         0.00443632          3.21947e-05         4.71301e-25         4.83611e-28         5.20044e-26         
0.47                1125.4              0.000321256         0.00108488          3.00383e-08         0.00447291          3.18724e-05         5.39341e-25         5.64675e-28         6.02065e-26         
0.475               1127.38             0.000326725         0.00109367          3.23123e-08         0.00450953          3.15559e-05         6.16531e-25         6.58502e-28         6.96199e-26         
0.48                1129.36             0.000332237         0.00110247          3.47383e-08         0.00454616          3.12451e-05         7.04013e-25         7.66974e-28         8.04114e-26         
0.485               1131.33             0.000337793         0.00111127          3.73253e-08         0.00458281          3.09398e-05         8.03063e-25         8.92235e-28         9.27694e-26         
