t [s]               T [K]               Xfront [mm]         sdot [mm/s]         dodt [kg/m^2s]      dcodt [kg/m^2s]     dco2dt [kg/m^2s]    dcdt [kg/m^2s]      dc2dt [kg/m^2s]     dc3dt [kg/m^2s]     
0                   800                 0                   0                   0                   0                   0                   0                   0                   0                   
0.005               814.871             1.53983e-08         3.07967e-06         1.82786e-05         1.10024e-05         2.75399e-06         1.48437e-37         2.08719e-42         1.37293e-39         
0.01                826.849             3.08838e-08         3.09709e-06         1.83431e-05         1.12595e-05         2.46335e-06         6.78148e-37         1.19556e-41         7.15074e-39         
0.015               836.965             4.65842e-08         3.14008e-06         1.83201e-05         1.15754e-05         2.24676e-06         2.36483e-36         5.02132e-41         2.77728e-38         
0.02                845.81              6.25684e-08         3.19684e-06         1.82477e-05         1.19189e-05         2.07635e-06         6.87818e-36         1.71212e-40         8.85702e-38         
0.025               853.741             7.88773e-08         3.26179e-06         1.81447e-05         1.22766e-05         1.93698e-06         1.75818e-35         5.0329e-40          2.45491e-37         
0.03                860.986             9.55372e-08         3.33197e-06         1.80212e-05         1.26419e-05         1.81972e-06         4.08113e-35         1.32433e-39         6.1277e-37          
0.035               867.694             1.12566e-07         3.40571e-06         1.78834e-05         1.30115e-05         1.71894e-06         8.78976e-35         3.1975e-39          1.41005e-36         
0.04                873.971             1.29976e-07         3.48197e-06         1.77349e-05         1.33833e-05         1.63091e-06         1.7828e-34          7.2057e-39          3.03984e-36         
0.045               879.892             1.47776e-07         3.56009e-06         1.75784e-05         1.37564e-05         1.55299e-06         3.44181e-34         1.53429e-38         6.21118e-36         
0.05                885.513             1.65974e-07         3.6396e-06          1.74155e-05         1.41301e-05         1.48332e-06         6.37468e-34         3.1149e-38          1.2132e-35          
0.055               890.877             1.84575e-07         3.72018e-06         1.72477e-05         1.45038e-05         1.42047e-06         1.13957e-33         6.0716e-38          2.28022e-35         
0.06                896.018             2.03583e-07         3.80161e-06         1.70757e-05         1.48774e-05         1.36336e-06         1.97555e-33         1.14246e-37         4.14508e-35         
0.065               900.963             2.23001e-07         3.8837e-06          1.69004e-05         1.52506e-05         1.31115e-06         3.33379e-33         2.08419e-37         7.31783e-35         
0.07                905.734             2.42833e-07         3.96634e-06         1.67223e-05         1.56234e-05         1.26317e-06         5.4932e-33          3.69939e-37         1.25885e-34         
0.075               910.349             2.6308e-07          4.04941e-06         1.65418e-05         1.59957e-05         1.21886e-06         8.86035e-33         6.40742e-37         2.11596e-34         
0.08                914.823             2.83744e-07         4.13284e-06         1.63593e-05         1.63673e-05         1.17778e-06         1.40196e-32         1.08556e-36         3.48323e-34         
0.085               919.169             3.04827e-07         4.21656e-06         1.6175e-05          1.67384e-05         1.13955e-06         2.18004e-32         1.80279e-36         5.6266e-34          
0.09                923.398             3.2633e-07          4.30054e-06         1.59893e-05         1.71089e-05         1.10386e-06         3.33658e-32         2.93979e-36         8.93357e-34         
0.095               927.52              3.48253e-07         4.38472e-06         1.58022e-05         1.74789e-05         1.07044e-06         5.03298e-32         4.71448e-36         1.39619e-33         
0.1                 931.543             3.70599e-07         4.46908e-06         1.5614e-05          1.78482e-05         1.03907e-06         7.49092e-32         7.44515e-36         2.15056e-33         
0.105               935.474             3.93367e-07         4.55359e-06         1.54247e-05         1.8217e-05          1.00954e-06         1.10122e-31         1.15915e-35         3.26828e-33         
0.11                939.32              4.16558e-07         4.63823e-06         1.52345e-05         1.85853e-05         9.81689e-07         1.60038e-31         1.78106e-35         4.90539e-33         
0.115               943.087             4.40173e-07         4.72298e-06         1.50435e-05         1.8953e-05          9.55367e-07         2.30109e-31         2.70324e-35         7.27754e-33         
0.12                946.779             4.64212e-07         4.80783e-06         1.48517e-05         1.93203e-05         9.30441e-07         3.27573e-31         4.05612e-35         1.06804e-32         
0.125               950.401             4.88676e-07         4.89277e-06         1.46593e-05         1.96872e-05         9.06797e-07         4.61981e-31         6.02106e-35         1.5516e-32          
0.13                953.958             5.13565e-07         4.97778e-06         1.44663e-05         2.00536e-05         8.84332e-07         6.45843e-31         8.8482e-35          2.23271e-32         
0.135               957.453             5.38879e-07         5.06286e-06         1.42727e-05         2.04195e-05         8.62954e-07         8.95452e-31         1.288e-34           3.18409e-32         
0.14                960.889             5.64619e-07         5.14801e-06         1.40786e-05         2.07852e-05         8.42584e-07         1.23189e-30         1.85817e-34         4.5026e-32          
0.145               964.27              5.90785e-07         5.23321e-06         1.3884e-05          2.11504e-05         8.23147e-07         1.6823e-30          2.65816e-34         6.31633e-32         
0.15                967.599             6.17378e-07         5.31847e-06         1.3689e-05          2.15153e-05         8.04578e-07         2.28141e-30         3.7722e-34          8.79376e-32         
0.155               970.877             6.44396e-07         5.40377e-06         1.34936e-05         2.18799e-05         7.86816e-07         3.07346e-30         5.31257e-34         1.21552e-31         
0.16                974.108             6.71842e-07         5.48912e-06         1.32978e-05         2.22442e-05         7.69809e-07         4.11452e-30         7.42806e-34         1.6687e-31          
0.165               977.294             6.99715e-07         5.57451e-06         1.31016e-05         2.26083e-05         7.53506e-07         5.47533e-30         1.03147e-33         2.27599e-31         
0.17                980.436             7.28014e-07         5.65995e-06         1.29051e-05         2.29721e-05         7.37864e-07         7.24471e-30         1.42295e-33         3.0851e-31          
0.175               983.536             7.56741e-07         5.74543e-06         1.27083e-05         2.33356e-05         7.22842e-07         9.53376e-30         1.95076e-33         4.15715e-31         
0.18                986.598             7.85896e-07         5.83094e-06         1.25111e-05         2.3699e-05          7.08401e-07         1.24809e-29         2.65838e-33         5.57013e-31         
0.185               989.621             8.15479e-07         5.91649e-06         1.23137e-05         2.40622e-05         6.94508e-07         1.62577e-29         3.60198e-33         7.42303e-31         
0.19                992.607             8.45489e-07         6.00208e-06         1.2116e-05          2.44252e-05         6.81132e-07         2.10766e-29         4.85381e-33         9.8411e-31          
0.195               995.558             8.75928e-07         6.08771e-06         1.19181e-05         2.4788e-05          6.68242e-07         2.71988e-29         6.50635e-33         1.29821e-30         
0.2                 998.476             9.06794e-07         6.17337e-06         1.17198e-05         2.51507e-05         6.55813e-07         3.49452e-29         8.67752e-33         1.70439e-30         
0.205               1001.36             9.3809e-07          6.25907e-06         1.15214e-05         2.55133e-05         6.43819e-07         4.47083e-29         1.15171e-32         2.22739e-30         
0.21                1004.22             9.69814e-07         6.34481e-06         1.13227e-05         2.58757e-05         6.32237e-07         5.69667e-29         1.52146e-32         2.89804e-30         
0.215               1007.04             1.00197e-06         6.43058e-06         1.11237e-05         2.62381e-05         6.21047e-07         7.23023e-29         2.00088e-32         3.7546e-30          
0.22                1009.83             1.03455e-06         6.51639e-06         1.09246e-05         2.66004e-05         6.10227e-07         9.14203e-29         2.61998e-32         4.84441e-30         
0.225               1012.6              1.06756e-06         6.60224e-06         1.07252e-05         2.69626e-05         5.99759e-07         1.15173e-28         3.41631e-32         6.22586e-30         
0.23                1015.34             1.101e-06           6.68812e-06         1.05257e-05         2.73247e-05         5.89627e-07         1.44588e-28         4.4367e-32          7.97074e-30         
0.235               1018.05             1.13487e-06         6.77404e-06         1.03259e-05         2.76869e-05         5.79814e-07         1.80899e-28         5.73942e-32         1.0167e-29          
0.24                1020.74             1.16917e-06         6.86e-06            1.01259e-05         2.80489e-05         5.70304e-07         2.25587e-28         7.39669e-32         1.29223e-29         
0.245               1023.4              1.2039e-06          6.946e-06           9.92573e-06         2.8411e-05          5.61085e-07         2.80422e-28         9.49774e-32         1.63677e-29         
0.25                1026.04             1.23906e-06         7.03204e-06         9.72536e-06         2.8773e-05          5.52142e-07         3.47515e-28         1.21526e-31         2.06625e-29         
0.255               1028.66             1.27465e-06         7.11811e-06         9.5248e-06          2.9135e-05          5.43463e-07         4.2938e-28          1.54963e-31         2.59999e-29         
0.26                1031.25             1.31067e-06         7.20423e-06         9.32406e-06         2.9497e-05          5.35037e-07         5.28998e-28         1.96947e-31         3.26136e-29         
0.265               1033.82             1.34712e-06         7.29038e-06         9.12314e-06         2.98591e-05         5.26852e-07         6.49905e-28         2.495e-31           4.07853e-29         
0.27                1036.37             1.38401e-06         7.37658e-06         8.92203e-06         3.02211e-05         5.18898e-07         7.96279e-28         3.1509e-31          5.08541e-29         
0.275               1038.9              1.42132e-06         7.46282e-06         8.72075e-06         3.05832e-05         5.11166e-07         9.73047e-28         3.96719e-31         6.32271e-29         
0.28                1041.41             1.45907e-06         7.5491e-06          8.51929e-06         3.09453e-05         5.03646e-07         1.18601e-27         4.98026e-31         7.83917e-29         
0.285               1043.89             1.49724e-06         7.63542e-06         8.31766e-06         3.13075e-05         4.96329e-07         1.44199e-27         6.23414e-31         9.69308e-29         
0.29                1046.36             1.53585e-06         7.72178e-06         8.11585e-06         3.16697e-05         4.89208e-07         1.74897e-27         7.78202e-31         1.19539e-28         
0.295               1048.82             1.57489e-06         7.80819e-06         7.91388e-06         3.2032e-05          4.82274e-07         2.11631e-27         9.68795e-31         1.47044e-28         
0.3                 1051.25             1.61437e-06         7.89464e-06         7.71174e-06         3.23943e-05         4.7552e-07          2.55493e-27         1.20289e-30         1.80426e-28         
0.305               1053.66             1.65427e-06         7.98113e-06         7.50943e-06         3.27568e-05         4.6894e-07          3.07757e-27         1.48972e-30         2.20851e-28         
0.31                1056.06             1.69461e-06         8.06767e-06         7.30695e-06         3.31193e-05         4.62526e-07         3.69907e-27         1.84035e-30         2.69695e-28         
0.315               1058.44             1.73538e-06         8.15425e-06         7.10432e-06         3.34818e-05         4.56273e-07         4.43666e-27         2.26796e-30         3.28583e-28         
0.32                1060.81             1.77659e-06         8.24088e-06         6.90152e-06         3.38445e-05         4.50173e-07         5.31033e-27         2.7883e-30          3.99431e-28         
0.325               1063.16             1.81822e-06         8.32755e-06         6.69856e-06         3.42072e-05         4.44223e-07         6.34323e-27         3.42008e-30         4.84493e-28         
0.33                1065.49             1.8603e-06          8.41426e-06         6.49544e-06         3.45701e-05         4.38416e-07         7.56215e-27         4.18554e-30         5.86414e-28         
0.335               1067.81             1.9028e-06          8.50103e-06         6.29216e-06         3.4933e-05          4.32747e-07         8.998e-27           5.11104e-30         7.08298e-28         
0.34                1070.11             1.94574e-06         8.58784e-06         6.08873e-06         3.52961e-05         4.27211e-07         1.06864e-26         6.22775e-30         8.53773e-28         
0.345               1072.4              1.98911e-06         8.67469e-06         5.88514e-06         3.56593e-05         4.21804e-07         1.26685e-26         7.5725e-30          1.02708e-27         
0.35                1074.67             2.03292e-06         8.76159e-06         5.68139e-06         3.60225e-05         4.16521e-07         1.49913e-26         9.18871e-30         1.23317e-27         
0.355               1076.93             2.07716e-06         8.84854e-06         5.47749e-06         3.63859e-05         4.11358e-07         1.77089e-26         1.11275e-29         1.47781e-27         
0.36                1079.17             2.12184e-06         8.93553e-06         5.27344e-06         3.67494e-05         4.06311e-07         2.08836e-26         1.34489e-29         1.76769e-27         
0.365               1081.41             2.16695e-06         9.02258e-06         5.06924e-06         3.71131e-05         4.01376e-07         2.45862e-26         1.62235e-29         2.11059e-27         
0.37                1083.62             2.2125e-06          9.10966e-06         4.86489e-06         3.74768e-05         3.96549e-07         2.8898e-26          1.95336e-29         2.51554e-27         
0.375               1085.83             2.25849e-06         9.1968e-06          4.66039e-06         3.78407e-05         3.91827e-07         3.39116e-26         2.3476e-29          2.99298e-27         
0.38                1088.02             2.30491e-06         9.28398e-06         4.45574e-06         3.82047e-05         3.87206e-07         3.97328e-26         2.81634e-29         3.55498e-27         
0.385               1090.2              2.35176e-06         9.37121e-06         4.25095e-06         3.85689e-05         3.82684e-07         4.6482e-26          3.37271e-29         4.21549e-27         
0.39                1092.37             2.39906e-06         9.45848e-06         4.04601e-06         3.89332e-05         3.78256e-07         5.4296e-26          4.03204e-29         4.99057e-27         
0.395               1094.53             2.44678e-06         9.5458e-06          3.84093e-06         3.92976e-05         3.73921e-07         6.33304e-26         4.81212e-29         5.89872e-27         
0.4                 1096.67             2.49495e-06         9.63316e-06         3.63571e-06         3.96621e-05         3.69674e-07         7.37616e-26         5.73363e-29         6.96123e-27         
0.405               1098.81             2.54355e-06         9.72058e-06         3.43035e-06         4.00268e-05         3.65514e-07         8.57897e-26         6.82052e-29         8.20253e-27         
0.41                1100.93             2.59259e-06         9.80803e-06         3.22485e-06         4.03916e-05         3.61438e-07         9.96412e-26         8.10055e-29         9.65065e-27         
0.415               1103.04             2.64207e-06         9.89553e-06         3.01921e-06         4.07565e-05         3.57443e-07         1.15572e-25         9.60581e-29         1.13377e-26         
0.42                1105.14             2.69199e-06         9.98308e-06         2.81345e-06         4.11216e-05         3.53526e-07         1.33872e-25         1.13734e-28         1.33004e-26         
0.425               1107.23             2.74234e-06         1.00707e-05         2.60755e-06         4.14868e-05         3.49686e-07         1.54866e-25         1.3446e-28          1.55808e-26         
0.43                1109.31             2.79313e-06         1.01583e-05         2.40152e-06         4.18522e-05         3.45921e-07         1.78924e-25         1.58729e-28         1.82267e-26         
0.435               1111.37             2.84436e-06         1.0246e-05          2.19537e-06         4.22176e-05         3.42227e-07         2.0646e-25          1.87109e-28         2.12929e-26         
0.44                1113.43             2.89603e-06         1.03337e-05         1.98909e-06         4.25832e-05         3.38603e-07         2.37939e-25         2.2025e-28          2.48416e-26         
0.445               1115.48             2.94814e-06         1.04214e-05         1.78269e-06         4.2949e-05          3.35047e-07         2.73885e-25         2.589e-28           2.89435e-26         
0.45                1117.52             3.00068e-06         1.05092e-05         1.57618e-06         4.33148e-05         3.31556e-07         3.14888e-25         3.03916e-28         3.36792e-26         
0.455               1119.55             3.05367e-06         1.05971e-05         1.36955e-06         4.36808e-05         3.2813e-07          3.61605e-25         3.56281e-28         3.91401e-26         
0.46                1121.57             3.10709e-06         1.0685e-05          1.1628e-06          4.40468e-05         3.24766e-07         4.14777e-25         4.17119e-28         4.54296e-26         
0.465               1123.57             3.16096e-06         1.07729e-05         9.55957e-07         4.4413e-05          3.21462e-07         4.75232e-25         4.87712e-28         5.26653e-26         
0.47                1125.57             3.21526e-06         1.08608e-05         7.49006e-07         4.47793e-05         3.18217e-07         5.43895e-25         5.69526e-28         6.098e-26           
0.475               1127.57             3.27001e-06         1.09488e-05         5.41956e-07         4.51457e-05         3.1503e-07          6.218e-25           6.64232e-28         7.05239e-26         
0.48                1129.55             3.32519e-06         1.10368e-05         3.34812e-07         4.55122e-05         3.11897e-07         7.10103e-25         7.73734e-28         8.14666e-26         
0.485               1131.52             3.38081e-06         1.11248e-05         1.27578e-07         4.58788e-05         3.08819e-07         8.10092e-25         9.00199e-28         9.39996e-26         
